# Binding energy = beta*G_N*M_AMC^2/R_AMC
# Columns: deltaE/Ebind, deltaM/M, f_ej, E_i_unbound/E_i_total
9.999999999999999547e-07 2.692637274921778885e-10 4.265134354541460903e-09 7.686925147494957704e-09
1.122667773510813544e-06 4.939763882854272965e-10 7.824580323651997917e-09 8.672567976395058448e-09
1.260382929679727474e-06 1.112800257746465580e-09 1.675414663047720109e-08 8.969359786112260869e-09
1.414991297434575852e-06 1.905849445417902708e-09 2.796757096143102139e-08 1.008241041217608440e-08
1.588565129428052708e-06 3.112624065854811096e-09 4.435991312799724993e-08 1.061620291671843429e-08
1.783430876931909385e-06 4.752733552452165222e-09 6.667764549472713493e-08 1.193459255839120698e-08
2.002200371815584564e-06 6.951745424934167484e-09 9.605989041031722463e-08 1.274462318507674024e-08
2.247805833548725500e-06 1.006738115497453349e-08 1.374229474985957986e-07 1.422740591065355123e-08
2.523539170434765982e-06 1.420226337819647359e-08 1.919299746432465713e-07 1.585243270031469844e-08
2.833096101839324281e-06 1.966429648687328902e-08 2.636746650931094211e-07 1.705144360208043939e-08
3.180625692794119338e-06 2.720825641304456565e-08 3.625468619417102891e-07 1.888343662187299594e-08
3.570785964900462606e-06 3.727665397638599108e-08 4.940540423887531876e-07 2.040169156747482878e-08
4.008806328898464506e-06 5.065352497379659467e-08 6.690067535266073784e-07 2.251357372454031504e-08
4.500557675700497562e-06 6.838229869254217673e-08 8.998955190203290048e-07 2.480720637907931654e-08
5.052631065335680056e-06 9.211507413682794710e-08 1.209681300558307547e-06 2.686887166338309761e-08
5.672426068491977286e-06 1.241427657165790173e-07 1.626884270622946938e-06 2.960973481490756475e-08
6.368249944718586522e-06 1.667154134804103104e-07 2.180670228753729447e-06 3.207545226360491789e-08
7.149428986597577096e-06 2.234589930189618289e-07 2.918778866436634582e-06 3.504531495740585468e-08
8.026433522257174640e-06 2.993597716317553068e-07 3.908307405124238549e-06 3.804747245290108690e-08
9.011018251665018299e-06 4.001574310534710223e-07 5.221104768588513632e-06 4.157443904070742065e-08
1.011637979766207114e-05 5.349040264303934795e-07 6.974474930764059505e-06 4.551816697556873223e-08
1.135733358343105172e-05 7.156144404191690235e-07 9.325327302644449386e-06 4.950123255333424746e-08
1.275051240713012877e-05 9.564455741568472119e-07 1.246128247675711869e-05 5.392377902893657051e-08
1.431458937523478591e-05 1.277496964383722491e-06 1.663889037094012913e-05 5.845344974322016728e-08
1.607052818261638468e-05 1.705347230132577191e-06 2.220801069751080742e-05 6.503693125970197235e-08
1.804186409392071643e-05 2.278003150238037680e-06 2.965729775337325142e-05 7.061707457657315013e-08
2.025501939230666413e-05 3.040235111773062107e-06 3.957605452046843695e-05 7.860557851371044806e-08
2.273965752357927516e-05 4.057866708030893490e-06 5.281386254895836210e-05 8.631961842253793751e-08
2.552908068239516468e-05 5.415681898965726684e-06 7.048057203797517803e-05 9.381884975765386793e-08
2.866067616948250315e-05 7.225220131219758622e-06 9.402038768203255172e-05 1.015111020905820617e-07
3.217641750250735676e-05 9.640358197462807724e-06 1.254286372060176794e-04 1.126898590922835017e-07
3.612342699709430527e-05 1.285771784190948254e-05 1.672710950411127615e-04 1.243480924582350959e-07
4.055460735840827523e-05 1.714635430879118692e-05 2.230336967740410023e-04 1.351119144595284283e-07
4.552935074866947907e-05 2.286190800906296860e-05 2.973337295559484164e-04 1.506899489204467798e-07
5.111433483440165230e-05 3.047465561676280710e-05 3.962821750985299932e-04 1.671790490993246286e-07
5.738441648302392912e-05 4.061354867911858387e-05 5.280327424810460487e-04 1.902317130563438344e-07
6.442363508721369713e-05 5.411012545553575958e-05 7.033766936324403534e-04 2.183166639654528422e-07
7.232633896483533814e-05 7.207197379103894312e-05 9.366680557139457023e-04 2.583074314894833333e-07
8.119844993184009404e-05 9.596011893246687114e-05 1.246822256869520524e-03 3.127757402908832679e-07
9.115888299750818402e-05 1.277172283153707433e-04 1.658992125839415903e-03 3.896910637273621560e-07
1.023411402105453783e-04 1.699059991297713562e-04 2.206323973114401611e-03 5.147217644306288893e-07
1.148951000187309720e-04 2.259175254515423425e-04 2.932626975590198280e-03 6.979442338962406555e-07
1.289890261253309376e-04 3.002154397570078246e-04 3.895513269833519431e-03 9.708628890792694169e-07
1.448118227674534582e-04 3.986778208457519975e-04 5.170738573869268322e-03 1.339090439670226003e-06
1.625755666443795110e-04 5.290215566864624056e-04 6.857600079725902249e-03 1.883341142494455683e-06
1.825183494319044218e-04 7.013515632560891368e-04 9.085905688947825895e-03 2.690362499705146164e-06
2.049074689815848173e-04 9.288610318741357189e-04 1.202469915694112657e-02 3.843721604226874551e-06
2.300430119772919131e-04 1.228682939578078139e-03 1.589290761879194602e-02 5.540137540067702417e-06
2.582618760682677613e-04 1.622964711767126101e-03 2.097252644345660305e-02 8.064648414952765859e-06
2.899422853882878274e-04 2.140159966098251730e-03 2.762423833424447125e-02 1.179915820869276586e-05
3.255088599835059718e-04 2.816512729106490642e-03 3.630485003528063914e-02 1.725831005702474941e-05
3.654383070957257953e-04 3.697715271627056207e-03 4.758580756447718108e-02 2.515966845298266429e-05
4.102658105827194793e-04 4.840373339394669731e-03 6.216718903883112352e-02 3.655947461789540710e-05
4.605922041145108403e-04 6.313021294325913725e-03 8.088282485081092765e-02 5.281889574916825443e-05
5.170920242896760938e-04 8.195660261853558379e-03 1.046804226191588860e-01 7.599068823860362257e-05
5.805225516094901636e-04 1.057558811263836426e-02 1.345421764842252565e-01 1.084110864997057163e-04
6.517339604882426947e-04 1.353458295532435768e-02 1.712701787361932126e-01 1.529469569425632720e-04
7.316807143427199196e-04 1.711284400962374830e-02 2.149094881761839104e-01 2.120591811340754955e-04
8.214343584919430634e-04 2.118344282454661873e-02 2.627726502638073058e-01 2.844345574472780295e-04
9.221978823334331301e-04 2.506940626765240959e-02 3.034270738100973142e-01 3.527256125684329578e-04
1.035321843295662538e-03 2.956704803667389511e-02 3.488983628319933250e-01 4.384877282894251234e-04
1.162322468679853095e-03 3.472749018891371775e-02 3.999431550963652438e-01 5.459465108784161301e-04
1.304901978014402992e-03 3.967408820630451138e-02 4.455336306560872539e-01 6.523918421679445346e-04
1.464971398307286267e-03 4.367324995418621347e-02 4.763658037287808455e-01 7.327328823575229204e-04
1.644676177994664444e-03 4.846905362086520452e-02 5.128633730754913467e-01 8.395483983027642169e-04
1.846424942895544350e-03 5.380796763089523704e-02 5.523587463244059581e-01 9.686188376553238766e-04
2.072921779595371904e-03 5.809453816962121403e-02 5.799615900234954546e-01 1.067921919791167381e-03
2.327202478960409531e-03 6.244262918447308214e-02 6.052873549904159711e-01 1.170825417390623921e-03
2.612675225563328932e-03 6.754808981507971766e-02 6.345363291869183797e-01 1.304010070896949964e-03
2.933166278390045463e-03 7.279098430006306075e-02 6.630949572411921622e-01 1.449275408386951729e-03
3.292971255097151308e-03 7.670380638841181598e-02 6.805770203416187103e-01 1.547914614061866954e-03
3.696912707195028347e-03 8.141316669068654477e-02 7.012744939754634865e-01 1.678890295137634107e-03
4.150404757850476717e-03 8.677305636710778980e-02 7.242501013187588876e-01 1.842148349179296854e-03
4.659525668664682083e-03 9.127967317546066550e-02 7.414657155280997003e-01 1.977930020309057960e-03
5.231099308056263129e-03 9.553494112053433074e-02 7.557476603359233325e-01 2.103832343181193023e-03
5.872786613189483196e-03 1.006057506287900138e-01 7.725080588991880548e-01 2.270164518561191246e-03
6.593188271333548338e-03 1.059908227719780632e-01 7.895828724699966994e-01 2.459474336445197779e-03
7.401959996915644276e-03 1.099657344217139371e-01 7.999910910777646711e-01 2.587135420662605399e-03
8.309941949353395751e-03 1.146232142575527996e-01 8.117806677680782235e-01 2.750179705662176427e-03
9.329304026284686302e-03 1.199944642624449359e-01 8.250656478505998814e-01 2.956819008265650604e-03
1.047370897959450792e-02 1.246954268811872463e-01 8.355899821978848285e-01 3.137766653813490493e-03
1.175849554052158137e-02 1.288983620025650756e-01 8.437049016994154771e-01 3.294126000624672274e-03
1.320088400831419435e-02 1.339624195235236404e-01 8.533409446432969059e-01 3.502758624851483402e-03
1.482020705798860020e-02 1.394251682842440332e-01 8.633468312304513059e-01 3.746293268235395199e-03
1.663816886076130777e-02 1.434754843945819647e-01 8.695306341560444796e-01 3.911611272378773783e-03
1.867913599020784576e-02 1.481096367695226568e-01 8.762722903036849198e-01 4.116020039981154420e-03
2.097046401323235040e-02 1.535004627225030061e-01 8.839461300356268314e-01 4.377901792322493220e-03
2.354286414322420348e-02 1.583199726006474239e-01 8.902037464808680856e-01 4.614405345270337737e-03
2.643081486974108163e-02 1.625096997380793551e-01 8.948510585446945997e-01 4.809839152431914094e-03
2.967302408188872420e-02 1.675714616664339129e-01 9.003827498433549792e-01 5.073977360140016248e-03
3.331294787934677148e-02 1.730852489060952515e-01 9.061949804964237742e-01 5.385460347300368919e-03
3.739937302478801850e-02 1.771740074753868077e-01 9.098013169847029014e-01 5.597548421903400170e-03
4.198707084443914495e-02 1.818166141187029516e-01 9.136794211827479195e-01 5.855499255631823989e-03
4.713753134116728527e-02 1.872339490852300559e-01 9.181069664333477709e-01 6.188862712819364134e-03
5.291978735958447616e-02 1.921095366568057461e-01 9.217514028998693432e-01 6.491630946424234959e-03
5.941133984965039916e-02 1.963015938189247023e-01 9.244195530678650519e-01 6.738573672906193746e-03
6.669919663030128565e-02 2.013891973098126953e-01 9.276107419586931968e-01 7.074111646813976625e-03
7.488103857590031054e-02 2.069389824700757496e-01 9.309675700725096315e-01 7.471287093430514260e-03
8.406652885618333404e-02 2.110370068939264876e-01 9.330405138770829776e-01 7.739749520693209664e-03
9.437878277775391123e-02 2.157081949697669532e-01 9.352785671684330504e-01 8.067427967119587817e-03
1.059560179277617004e-01 2.211634884354254649e-01 9.735586630650209239e-01 8.492427435702611452e-03
1.189534067370320719e-01 2.260300667966491928e-01 9.756382456302717943e-01 8.874047454284307579e-03
1.335451562929900193e-01 2.302499979835500310e-01 9.771783003106870868e-01 9.188696010905939016e-03
1.499268432786046990e-01 2.353801484414154432e-01 9.790234496198101377e-01 9.617056122348432295e-03
1.683180353330958334e-01 2.409554069278128374e-01 9.809533277712337851e-01 1.012163848642631640e-02
1.889652339691211547e-01 2.450340095251288819e-01 9.821292445503776447e-01 1.045701122709554766e-02
2.121451784910632077e-01 2.497513408891620101e-01 9.834239284539898485e-01 1.087609744308020918e-02
2.381685551976160664e-01 2.552557182591080331e-01 9.849019808768535444e-01 1.141878579488470567e-02
2.673841615839949171e-01 2.600587816108020367e-01 9.860707144083064035e-01 1.189257457903554471e-02
3.001835813575592371e-01 2.643295220256327016e-01 9.869639112431045636e-01 1.229553784038179068e-02
3.370064329271931780e-01 2.695186338446249330e-01 9.880333558796370319e-01 1.284510034276458226e-02
3.783462617131932992e-01 2.751008386023029439e-01 9.891373023765409611e-01 1.348324269181983351e-02
4.247571552536902884e-01 2.791408222737776779e-01 9.897970996406856292e-01 1.389835580771950699e-02
4.768611697714474351e-01 2.839235248819255153e-01 9.905494539100835327e-01 1.443748637809334594e-02
5.353566677410729335e-01 2.894839564655153352e-01 9.914035371602345492e-01 1.513140854174393687e-02
6.010276782070388402e-01 2.941818663774872777e-01 9.920503746785552801e-01 1.570954733633606049e-02
6.747544053110700046e-01 2.985254030869093356e-01 9.925706763438905122e-01 1.622842735931900524e-02
7.575250258771920597e-01 3.037925045185294604e-01 9.931918829092583056e-01 1.693486931345860799e-02
8.504489341802685676e-01 3.093462319143746586e-01 9.938180965741951756e-01 1.773611508049302912e-02
9.547716114208065763e-01 3.133447556472721551e-01 9.941868327485369194e-01 1.824797960910828562e-02
1.071891319205128701e+00 3.182142218183693361e-01 9.946255405007801143e-01 1.894411199491525394e-02
1.203377840777590579e+00 3.238305199038649662e-01 9.951186561065562541e-01 1.983183274597338092e-02
1.350993521198027958e+00 3.283854841469199815e-01 9.954714442387136986e-01 2.052649907215555250e-02
1.516716888470924118e+00 3.328202345205699686e-01 9.957757950660678370e-01 2.119852750902867164e-02
1.702769172225901295e+00 3.381791207260163024e-01 9.961372485459680792e-01 2.210868560702240054e-02
1.911644075385703578e+00 3.436357376947582476e-01 9.964862009546243682e-01 2.309490103170925776e-02
2.146141197858405736e+00 3.476353551405960141e-01 9.966949561427541626e-01 2.373542539529259823e-02
2.409403560239526954e+00 3.526124653426838673e-01 9.969515462166453901e-01 2.463692971747646204e-02
2.704959730463137202e+00 3.582792850680848740e-01 9.972355174024588598e-01 2.576908021843013485e-02
3.036771118035460404e+00 3.626613016819270063e-01 9.974253446520537913e-01 2.659227178468420022e-02
3.409285069746814667e+00 3.672109123823836252e-01 9.976040894647109081e-01 2.746682230399775937e-02
3.827494478516315191e+00 3.726698476872222221e-01 9.978145869887259378e-01 2.864108894804286154e-02
4.297004704320843693e+00 3.778901750636659007e-01 9.980023167652911642e-01 2.980770885923884894e-02
4.824108704165373851e+00 3.820043835686007250e-01 9.981252833595271046e-01 3.064356992279354888e-02
5.415871378079476273e+00 3.871067403250828542e-01 9.982757518555818166e-01 3.181514878457262357e-02
6.080224261649426865e+00 3.928029838446978061e-01 9.984383368932212566e-01 3.324945896630584347e-02
6.826071834272393168e+00 3.970004346246402971e-01 9.985394125376243490e-01 3.421325697145132655e-02
7.663410868007462184e+00 4.016866211721209501e-01 9.986447769687022413e-01 3.535550207320031779e-02
8.603464416684509786e+00 4.072518156123662858e-01 9.987673094429779796e-01 3.687031920496920689e-02
9.658832241158707532e+00 4.121925276829981888e-01 9.988666064712202752e-01 3.822424610740684375e-02
1.084365968689610860e+01 4.164473770390445528e-01 9.989393979412083402e-01 3.931927754037642386e-02
1.217382727739662052e+01 4.216916011413568977e-01 9.990278046511680277e-01 4.084413743034635835e-02
1.366716356462007376e+01 4.273640227153616689e-01 9.991197245300016405e-01 4.263670017249569788e-02
1.534368408930013139e+01 4.313994486239880466e-01 9.991735177016588532e-01 4.376385229987025255e-02
1.722585965398787522e+01 4.362446813095920972e-01 9.992358319635142871e-01 4.525937662299012176e-02
1.933891750455232028e+01 4.419089125328842793e-01 9.993069497127019529e-01 4.720517770384712736e-02
2.171117945694505380e+01 4.465393060640182599e-01 9.993585512221259126e-01 4.874611704830306147e-02
2.437444150122221842e+01 4.509595053167955725e-01 9.994018253668683904e-01 5.018743625636116340e-02
2.736439997074672092e+01 4.563571936450405153e-01 9.994538057065848191e-01 5.217274162797760906e-02
3.072112998861759081e+01 4.618554928259197556e-01 9.995039996714057962e-01 5.432534343968450224e-02
3.448962260405759395e+01 4.658522416735362826e-01 9.995337490451177143e-01 5.569812284493311227e-02
3.872038781812557318e+01 4.708774219463173205e-01 9.995707015243285865e-01 5.766196129160069961e-02
4.347013158125026422e+01 4.766110940352126235e-01 9.996116646696613373e-01 6.013951346003527237e-02
4.880251583654433745e+01 4.809228706740717452e-01 9.996380573579597417e-01 6.185932176197542209e-02
5.478901179593945159e+01 4.855345467503494605e-01 9.996638879068520112e-01 6.376429566981890729e-02
6.150985788580504021e+01 4.910882059884553730e-01 9.996944008303033646e-01 6.634170975993393393e-02
6.905513520162330110e+01 4.961623853210105350e-01 9.997200955497606012e-01 6.874277472446005399e-02
7.752597488629464806e+01 5.003533391329910707e-01 9.997379476191471381e-01 7.056376580326184644e-02
8.703591361485165123e+01 5.055769704980638268e-01 9.997598923854824626e-01 7.314393075041115966e-02
9.771241535346501905e+01 5.113000404707437330e-01 9.997830545264270174e-01 7.623073754493853160e-02
1.096985797892386358e+02 5.153381495017715919e-01 9.997965315229278005e-01 7.814558706104160479e-02
1.231550603292826196e+02 5.201684594504458747e-01 9.998120001780296251e-01 8.066741265655079374e-02
1.382622173764659124e+02 5.258604782366750330e-01 9.998298077803577932e-01 8.398929898023324570e-02
1.552225357427047925e+02 5.304817028674227997e-01 9.998426346417523813e-01 8.658845879586966887e-02
1.742633386009654259e+02 5.348984417672350000e-01 9.998533977902526182e-01 8.901634721655989069e-02
1.956398343517064689e+02 5.403299009015118948e-01 9.998664183132693895e-01 9.239666724443949819e-02
2.196385372416551434e+02 5.457701613410400610e-01 9.998787336803200976e-01 9.598018668796023944e-02
2.465811075822603868e+02 5.497768655264505533e-01 9.998861551400353154e-01 9.828820519797459854e-02
2.768286630392072425e+02 5.548498451463033110e-01 9.998954375430931796e-01 1.016324167533610434e-01
3.107866187782013867e+02 5.606148006682990514e-01 9.999056705328617234e-01 1.058355493433631722e-01
3.489101213406780744e+02 5.647998063513134381e-01 9.999119495472398311e-01 1.085819727792444178e-01
3.917101490809260440e+02 5.694750948461293483e-01 9.999184639058578128e-01 1.118247315655502561e-01
4.397603609302730092e+02 5.751022475866908179e-01 9.999261480092997978e-01 1.162260816322497198e-01
4.937047852839003781e+02 5.799551967722204049e-01 9.999321596352360730e-01 1.199924229345091659e-01
5.542664520663118992e+02 5.842246538481840057e-01 9.999366836061880370e-01 1.230973863270110880e-01
6.222570836730230894e+02 5.895552285348183430e-01 9.999422502165349336e-01 1.275179563167983809e-01
6.985879746785262796e+02 5.951861934070195037e-01 9.999478701019220983e-01 1.325628229600680774e-01
7.842822061337682271e+02 5.990996086990824088e-01 9.999510363006942626e-01 1.355516021692111939e-01
8.804883581643482557e+02 6.040637164583974039e-01 9.999549885928555870e-01 1.398913131355857542e-01
9.884959046625585870e+02 6.098196610205468549e-01 9.999594492287093850e-01 1.455036612078415559e-01
1.109752496412074379e+03 6.140905393322549921e-01 9.999622881112582018e-01 1.493009530721084999e-01
1.245883364295008050e+03 6.186621729626705646e-01 9.999650581348721312e-01 1.534892587008006848e-01
1.398713102647241612e+03 6.242382524796439291e-01 9.999683743926868207e-01 1.592843613576914452e-01
1.570290124729377567e+03 6.291817278485585252e-01 9.999710659418296066e-01 1.644455606569001638e-01
1.762914118095951608e+03 6.333590882006741030e-01 9.999729901745764149e-01 1.684404694903886834e-01
1.979166867853557278e+03 6.386303415228058444e-01 9.999753847068020285e-01 1.742239075926471648e-01
2.221946860939528506e+03 6.442820177158298245e-01 9.999778453907172127e-01 1.809664843940978207e-01
2.494508135230316384e+03 6.481482808095415660e-01 9.999792101246063325e-01 1.848537810263778391e-01
2.800503894183636476e+03 6.530593259302189812e-01 9.999809098165712840e-01 1.905052551539077321e-01
3.144035471591500027e+03 6.587956698202099837e-01 9.999828439650860767e-01 1.979025193053917941e-01
3.529707302730657375e+03 6.630145858821243632e-01 9.999840640448453000e-01 2.028321326340300768e-01
3.962688638701478339e+03 6.675455897431807895e-01 9.999852570769869331e-01 2.082774762432968718e-01
4.448782831127594363e+03 6.731028369459141070e-01 9.999866938943345884e-01 2.158891568182757514e-01
4.994505115855139593e+03 6.779385099579465779e-01 9.999878340275026867e-01 2.224820888268077557e-01
5.607169938205469407e+03 6.820894472305556455e-01 9.999886646453138850e-01 2.276596599224026130e-01
6.294988990221887434e+03 6.873554307695475263e-01 9.999897042326357788e-01 2.352442993525744597e-01
7.067181273927505572e+03 6.928893029304789009e-01 9.999907468443436365e-01 2.438562662002945469e-01
7.934096665797492278e+03 6.966794374997589134e-01 9.999913235991916283e-01 2.487520345093126861e-01
